time,f1,b1,f2,b2,f3,b3,f4,b4,f1p,f2p,f3p,f4p,f0,intensity,harmonicity
0.025000,476.9,230.4,1782.1,274.1,2798.6,88.5,4083.7,284.6,467.9,1745.1,2791.7,4125.4,214.1,73.3,-1.7
0.027000,470.2,162.3,1793.0,272.7,2807.0,71.0,4128.0,198.4,469.1,1745,2792.6,4117.4,213.8,75,-0.2
0.029000,467.4,123.8,1792.7,260.9,2803.1,64.8,4143.5,170.2,471,1744.9,2794.1,4104.2,213.4,76.7,2.4
0.031000,466.2,94.1,1773.6,221.1,2791.4,64.4,4156.2,186.5,473.7,1744.7,2796.1,4085.9,213.1,78.3,5.3
0.033000,466.2,73.6,1753.5,173.6,2780.3,67.5,4138.0,1156.6,477.1,1744.6,2798.6,4062.9,212.7,79.7,8
0.035000,467.5,60.3,1740.8,134.4,2775.2,74.8,4023.8,1000.9,481.1,1744.6,2801.5,4035.4,212.2,80.8,9.9
0.037000,470.0,53.5,1734.6,107.6,2778.1,86.9,3937.3,944.4,485.7,1744.6,2804.8,4003.9,211.7,81.8,11
0.039000,473.5,52.2,1731.5,93.2,2785.9,101.4,3875.2,951.6,490.8,1744.7,2808.3,3968.8,211.2,82.6,11.6
0.041000,478.5,54.9,1728.9,86.6,2794.7,117.1,3827.4,981.3,496.4,1745.1,2812.1,3930.5,210.7,83.2,11.8
0.043000,484.9,60.7,1726.6,86.5,2802.6,130.0,3805.7,997.2,502.4,1745.6,2815.9,3889.5,210.1,83.6,11.9
0.045000,493.3,70.3,1725.9,90.8,2812.2,138.0,3813.9,973.1,508.6,1746.5,2819.8,3846.5,209.5,83.9,11.9
0.047000,504.9,84.6,1728.0,97.8,2826.7,137.6,3836.7,893.4,515.1,1747.6,2823.5,3802,208.9,84.1,11.7
0.049000,518.4,99.3,1731.0,102.9,2842.1,129.4,3835.2,821.2,521.8,1749.2,2827.1,3756.6,208.2,84.1,11.3
0.051000,533.2,110.3,1731.0,103.8,2854.1,117.7,3807.4,814.4,528.5,1751.2,2830.3,3710.8,207.5,84.2,10.7
0.053000,548.6,117.1,1727.0,101.1,2861.2,104.3,3767.5,861.4,535.3,1753.7,2833.2,3665.3,206.8,84.1,10.1
0.055000,562.4,122.5,1721.7,98.5,2862.4,92.3,3729.1,942.7,542,1756.6,2835.5,3620.6,206,84.1,9.6
0.057000,575.2,130.1,1718.5,98.8,2857.6,83.1,3684.0,1066.2,548.6,1760.1,2837.3,3577.2,205.3,84,8.9
0.059000,585.4,139.9,1719.5,102.7,2849.2,78.7,3624.1,1203.4,555.1,1764.1,2838.5,3535.6,204.5,83.8,8.1
0.061000,593.6,149.4,1724.9,109.4,2840.3,80.0,3544.5,1296.2,561.5,1768.7,2838.9,3496.4,203.7,83.7,7.3
0.063000,600.1,154.3,1735.8,118.8,2832.5,90.3,3458.5,1270.5,567.6,1773.8,2838.6,3459.9,203,83.5,6.7
0.065000,604.6,153.2,1754.6,130.6,2827.3,112.8,3384.9,1153.6,573.6,1779.4,2837.4,3426.4,202.2,83.4,6.5
0.067000,607.8,147.6,1783.2,143.2,2826.4,153.8,3303.4,1033.1,579.4,1785.6,2835.5,3396.4,201.4,83.3,6.9
0.069000,609.6,138.3,1816.5,150.7,2833.3,224.0,3206.8,935.4,585.1,1792.1,2832.7,3370,200.6,83.4,7.6
0.071000,610.0,129.3,1841.8,150.0,2851.1,304.7,3137.0,881.4,590.6,1799.1,2829,3347.4,199.8,83.6,8.5
0.073000,609.3,120.9,1858.0,144.1,2873.4,339.8,3127.3,926.2,595.9,1806.5,2824.5,3328.8,199,83.9,9.4
0.075000,608.0,112.9,1866.1,139.5,2877.2,317.1,3178.9,1029.6,601.2,1814.1,2819.1,3314.2,198.2,84.3,10
0.077000,607.0,105.5,1870.9,141.9,2863.6,297.2,3233.9,1084.2,606.4,1822,2813,3303.6,197.4,84.7,10.3
0.079000,606.8,99.5,1874.8,152.0,2836.5,299.2,3260.2,1066.1,611.6,1830,2806.1,3296.9,196.7,85.1,10.4
0.081000,607.4,94.9,1876.5,163.1,2800.6,313.3,3274.1,1004.0,616.9,1838,2798.5,3294.1,195.9,85.4,10.4
0.083000,607.9,90.5,1873.9,169.2,2757.6,320.3,3305.7,927.2,622.2,1845.9,2790.3,3294.9,195.2,85.7,10.3
0.085000,608.4,87.1,1868.3,169.2,2721.3,310.5,3355.3,864.8,627.7,1853.7,2781.5,3299.2,194.4,85.9,10.4
0.087000,609.1,86.1,1863.4,168.8,2700.2,294.6,3405.3,821.9,633.4,1861.3,2772.3,3306.7,193.7,86,10.5
0.089000,610.3,88.9,1862.7,173.3,2697.4,281.6,3443.6,802.7,639.2,1868.5,2762.6,3317,193,86.1,10.7
0.091000,612.0,94.6,1867.4,182.1,2705.3,270.0,3470.0,806.2,645.3,1875.2,2752.6,3330,192.3,86.2,10.9
0.093000,613.9,101.3,1875.5,191.2,2712.3,254.7,3492.2,823.1,651.7,1881.4,2742.3,3345.1,191.7,86.2,11
0.095000,616.0,107.5,1884.7,197.6,2712.7,238.8,3510.7,844.1,658.3,1887,2731.9,3362.1,191,86.1,10.8
0.097000,618.5,114.4,1892.8,200.6,2707.6,232.3,3521.7,853.5,665.1,1891.9,2721.4,3380.6,190.4,86,10.2
0.099000,623.2,127.5,1899.2,202.0,2699.3,240.6,3526.3,841.4,672.2,1895.9,2710.9,3400.2,189.7,85.8,9.3
0.101000,630.9,151.5,1901.0,203.0,2691.7,259.0,3522.6,815.8,679.5,1899.2,2700.4,3420.6,189.1,85.5,8.3
0.103000,642.9,193.2,1896.1,205.4,2688.5,278.3,3502.1,798.2,687,1901.5,2690.1,3441.3,188.5,85.1,7.4
0.105000,661.1,263.4,1885.4,213.5,2691.1,296.4,3457.3,805.6,694.6,1902.9,2679.9,3462.2,187.9,84.7,6.8
0.107000,686.4,368.0,1875.4,232.5,2695.8,321.0,3406.5,833.3,702.2,1903.3,2670,3482.8,187.4,84.4,6.4
0.109000,724.8,519.5,1871.0,266.8,2699.2,358.2,3376.0,867.2,709.8,1902.8,2660.4,3502.9,186.8,84,6.3
0.111000,778.6,692.6,1872.8,314.7,2695.4,405.2,3375.0,884.1,717.3,1901.2,2651,3522.2,186.3,83.7,6.3
0.113000,818.6,787.8,1877.3,353.3,2679.4,438.7,3392.7,861.7,724.6,1898.7,2642,3540.6,185.7,83.5,6.3
0.115000,824.0,800.1,1882.7,375.2,2659.4,443.2,3428.7,832.8,731.6,1895.3,2633.3,3557.7,185.2,83.4,6.2
0.117000,808.5,767.2,1888.0,384.9,2645.3,422.6,3476.7,819.9,738.1,1891,2625,3573.5,184.7,83.4,6
0.119000,789.4,720.1,1888.3,388.9,2631.8,388.3,3521.9,804.4,744.1,1885.8,2617,3587.9,184.2,83.4,5.7
0.121000,773.0,691.9,1875.1,385.8,2613.4,345.6,3553.2,773.8,749.5,1879.8,2609.4,3600.8,183.7,83.4,5.5
0.123000,764.7,706.3,1851.2,373.6,2594.0,303.8,3576.2,737.4,754.1,1873.1,2602.2,3612.2,183.3,83.4,5.4
0.125000,766.0,750.8,1827.0,358.0,2576.5,267.7,3607.0,703.6,757.9,1865.7,2595.2,3622,182.9,83.4,5.7
0.127000,772.9,772.8,1813.8,348.0,2563.5,243.6,3640.3,674.9,760.7,1857.8,2588.6,3630.3,182.4,83.4,6.5
0.129000,776.9,744.6,1811.5,343.2,2555.3,227.7,3664.0,643.5,762.5,1849.4,2582.3,3637.1,182,83.3,7.6
0.131000,772.6,682.6,1816.5,341.1,2554.2,218.5,3670.3,609.1,763.3,1840.7,2576.3,3642.6,181.7,83.3,9
0.133000,761.7,614.6,1823.4,338.5,2559.1,214.9,3661.6,576.1,762.9,1831.7,2570.5,3646.8,181.3,83.2,10.1
0.135000,746.7,547.7,1829.9,333.8,2565.3,212.7,3648.8,542.5,761.4,1822.5,2564.9,3649.8,181,83.1,10.8
0.137000,729.4,487.2,1836.5,328.8,2569.2,208.0,3645.5,511.1,758.7,1813.3,2559.6,3651.9,180.6,82.9,10.9
0.139000,714.6,444.3,1845.2,328.8,2570.4,200.4,3658.5,490.1,754.8,1804,2554.4,3653,180.4,82.8,10.5
0.141000,704.5,418.3,1857.2,336.5,2569.6,191.6,3682.7,478.3,749.8,1795,2549.5,3653.5,180.1,82.6,9.9
0.143000,701.6,414.2,1865.2,347.3,2567.0,184.0,3706.3,476.6,743.6,1786.1,2544.7,3653.3,179.8,82.4,9.5
0.145000,704.1,432.5,1861.5,354.4,2563.1,177.1,3725.0,483.2,736.5,1777.5,2540.1,3652.8,179.6,82.1,9.5
0.147000,709.8,468.1,1843.1,352.9,2557.7,169.5,3733.6,490.6,728.3,1769.3,2535.7,3651.9,179.4,82,10.1
0.149000,715.3,500.2,1816.4,341.2,2551.9,161.6,3724.6,484.8,719.3,1761.6,2531.4,3650.9,179.3,81.8,11.2
0.151000,718.8,513.5,1788.7,319.8,2545.8,152.6,3701.4,455.1,709.6,1754.3,2527.4,3649.8,179.1,81.8,12.5
0.153000,717.1,496.9,1764.2,291.0,2538.1,141.3,3676.2,400.3,699.3,1747.7,2523.6,3648.8,179,81.8,13.5
0.155000,707.3,452.1,1744.7,260.9,2527.2,128.8,3660.2,340.6,688.5,1741.6,2520,3647.9,178.9,81.8,13.9
0.157000,690.4,389.8,1727.2,231.5,2511.9,117.3,3650.6,289.9,677.5,1736.1,2516.7,3647.3,178.8,81.9,13.7
0.159000,673.0,337.2,1715.1,213.0,2496.7,112.1,3644.6,261.2,666.3,1731.3,2513.7,3646.9,178.8,81.9,13.1
0.161000,658.0,305.0,1708.9,209.9,2485.2,115.9,3639.4,252.2,655.2,1727.2,2511,3646.9,178.8,81.8,12.2
0.163000,645.3,289.8,1705.7,221.9,2478.8,127.5,3633.3,258.6,644.3,1723.7,2508.6,3647.2,178.8,81.6,11.2
0.165000,633.8,281.3,1700.3,240.1,2477.4,138.8,3627.2,269.2,633.7,1720.8,2506.7,3647.8,178.8,81.3,10.2
0.167000,620.8,271.4,1690.1,257.8,2478.1,143.8,3622.8,274.7,623.7,1718.6,2505.2,3648.7,178.8,80.9,9.3
0.169000,605.9,260.4,1675.2,273.7,2478.4,142.6,3621.7,273.6,614.5,1717,2504.1,3650,178.9,80.3,8.3
0.171000,593.0,251.0,1657.1,281.9,2475.4,137.9,3622.2,265.9,606,1716,2503.5,3651.5,178.9,79.5,7.2
0.173000,582.4,237.0,1635.5,274.0,2466.2,131.5,3621.4,248.1,598.5,1715.6,2503.4,3653.3,179,78.6,6.2
0.175000,574.7,212.9,1619.2,255.4,2451.8,126.7,3620.2,222.4,592.1,1715.6,2503.9,3655.2,179.1,77.6,5.4
0.177000,568.9,181.0,1615.4,244.6,2436.1,127.0,3622.0,199.2,586.9,1716.1,2504.8,3657.3,179.2,76.5,4.8
0.179000,564.6,148.5,1628.8,251.0,2426.7,133.9,3624.9,194.1,582.9,1717,2506.3,3659.4,179.3,75.4,4.3
0.181000,561.8,128.1,1659.2,264.6,2434.8,149.7,3626.9,219.6,580.2,1718.3,2508.3,3661.5,179.4,74.2,3.9
0.183000,562.6,128.6,1702.1,263.7,2475.2,190.4,3631.4,295.0,578.8,1719.9,2510.9,3663.6,179.5,73,3.5
0.185000,573.2,152.2,1737.5,234.1,2558.0,258.6,3652.7,432.3,578.6,1721.8,2513.9,3665.6,179.7,71.9,3
0.187000,594.6,173.5,1760.6,189.4,2661.7,311.0,3710.7,595.1,579.8,1723.8,2517.3,3667.5,179.8,71.1,5.6
0.189000,612.0,167.7,1777.0,153.4,2724.0,340.1,3749.6,692.7,582.1,1726,2521.2,3669.2,179.9,70.5,11.3
0.191000,616.5,152.0,1787.5,137.5,2720.5,392.4,3698.4,701.4,585.6,1728.4,2525.5,3670.7,180,70.1,15.4
0.193000,617.4,139.8,1794.7,139.3,2657.7,445.9,3622.2,591.1,590,1730.8,2530.1,3672,180.1,69.9,13.2
0.195000,620.5,132.7,1800.3,161.6,2561.3,431.3,3589.9,445.7,595.4,1733.3,2534.9,3673,180.2,69.8,-0.1
0.197000,626.0,132.6,1804.3,204.3,2493.2,371.0,3599.1,356.0,601.6,1735.7,2540,3673.8,180.3,69.6,-30.7
0.199000,632.7,139.0,1809.8,265.8,2461.7,323.5,3633.4,309.1,608.4,1738.1,2545.1,3674.4,0,69.5,-75.5
0.201000,638.6,142.4,1816.8,306.4,2462.3,304.9,3673.9,293.7,615.6,1740.4,2550.3,3674.7,0,69.3,-125
0.203000,643.2,137.4,1819.6,285.3,2489.4,292.1,3714.4,299.3,623.1,1742.6,2555.5,3674.9,0,69.1,-169.7
0.205000,648.1,135.6,1815.2,232.5,2530.0,266.9,3758.8,317.4,630.7,1744.7,2560.5,3674.8,0,68.9,-200
0.207000,654.2,148.0,1809.0,199.7,2563.3,242.3,3797.3,333.1,638.3,1746.7,2565.4,3674.6,0,68.6,-212.8
0.209000,662.2,172.8,1804.0,190.5,2588.6,232.6,3816.5,346.4,645.6,1748.4,2569.9,3674.3,0,68.2,-214.4
0.211000,671.0,205.8,1799.1,200.3,2608.6,243.8,3807.9,364.9,652.4,1750,2574.2,3674,0,67.6,-209.6
0.213000,677.8,255.6,1785.8,226.5,2614.8,276.3,3771.8,387.5,658.8,1751.5,2578,3673.6,0,66.9,-203.2
0.215000,679.4,373.3,1744.0,264.7,2591.0,327.4,3704.1,401.9,664.4,1752.7,2581.4,3673.1,0,66.3,-200
0.217000,660.5,575.1,1680.0,277.5,2541.8,364.5,3628.8,379.3,669.2,1753.7,2584.2,3672.7,0,65.8,-200
0.219000,627.7,708.9,1638.7,257.4,2510.7,386.5,3580.3,348.6,673,1754.4,2586.4,3672.4,0,65.6,-200
0.221000,630.3,605.3,1641.9,243.7,2529.4,430.0,3566.2,357.2,675.8,1755,2588.1,3672.1,0,65.7,-200
0.223000,634.2,439.9,1666.9,232.6,2583.3,489.6,3576.3,409.3,677.5,1755.3,2589,3672,0,65.8,-200
0.225000,625.5,317.1,1690.2,213.0,2650.7,540.2,3600.9,474.3,678.1,1755.4,2589.4,3671.9,0,65.9,-200
