time,f1,b1,f2,b2,f3,b3,f4,b4,f1p,f2p,f3p,f4p,f0,intensity,harmonicity
0.025000,581.6,254.3,1400.8,95.2,2572.0,170.6,3459.6,172.0,600.2,1395.2,2566.2,3490,148.3,76.2,0.7
0.027000,607.6,274.0,1393.7,103.8,2586.3,193.3,3446.2,146.3,604.8,1393.5,2567.7,3479.7,148.2,76.7,1.8
0.029000,632.3,292.5,1384.2,111.5,2606.6,212.6,3443.0,128.6,612.2,1390.8,2569.7,3463.4,148.1,77.1,3.5
0.031000,644.0,288.7,1377.6,111.1,2606.0,217.0,3443.9,121.7,622.1,1387.5,2571.6,3442,148,77.4,5.5
0.033000,646.4,269.2,1375.7,108.8,2578.5,210.0,3444.1,128.6,633.9,1383.8,2572.5,3416.9,147.8,77.7,7.3
0.035000,646.9,256.7,1377.6,111.8,2543.8,198.8,3440.9,157.2,647,1380,2571.4,3389.7,147.7,77.9,8.5
0.037000,650.7,266.1,1381.7,123.5,2520.2,195.3,3426.8,221.2,661,1376.5,2567.6,3361.8,147.5,78.1,9.1
0.039000,658.9,295.4,1385.3,141.2,2512.5,210.3,3385.5,305.4,675.1,1373.7,2560,3335,147.4,78.2,9.3
0.041000,670.4,333.8,1384.9,157.2,2508.9,245.2,3307.5,366.8,688.8,1371.9,2548.2,3310.4,147.2,78.3,9.2
0.043000,681.2,372.1,1380.4,161.8,2501.7,280.7,3238.0,374.6,701.4,1371.2,2531.7,3289.4,147,78.2,9.2
0.045000,691.8,425.6,1376.0,162.6,2493.6,307.5,3207.3,371.7,712.7,1371.8,2510.4,3272.6,146.8,78.2,9.3
0.047000,706.4,509.2,1374.0,174.8,2490.5,336.2,3218.2,385.3,722.2,1373.8,2484.6,3260.6,146.6,78,10
0.049000,730.6,629.3,1372.8,204.4,2487.9,387.1,3248.6,402.4,729.8,1377.1,2454.9,3253.3,146.4,77.8,10.9
0.051000,756.5,741.5,1372.6,237.2,2472.7,453.7,3266.9,406.3,735.3,1381.5,2422.3,3250.7,146.2,77.7,11.8
0.053000,775.1,829.8,1376.0,265.2,2428.1,514.3,3266.8,398.8,738.8,1387,2387.9,3252.2,146,77.5,12.3
0.055000,781.9,883.3,1383.0,287.8,2365.5,531.1,3260.6,385.0,740.3,1393.2,2353.1,3257.1,145.7,77.4,12.2
0.057000,777.9,886.3,1392.3,294.2,2322.2,513.6,3264.0,369.6,740.1,1399.9,2319.5,3264.7,145.5,77.4,11.1
0.059000,756.1,807.5,1407.1,263.2,2302.4,488.0,3282.4,346.2,738.3,1406.9,2288.6,3274.2,145.2,77.5,9.3
0.061000,721.1,659.3,1421.9,201.1,2290.5,471.4,3305.9,313.9,735.1,1413.9,2261.7,3285.1,144.9,77.7,7.1
0.063000,689.0,511.6,1430.1,138.7,2266.0,483.3,3323.5,277.2,730.8,1420.9,2240.3,3296.6,144.7,78,5.2
0.065000,674.0,433.8,1432.5,101.5,2223.6,519.0,3328.3,250.6,725.5,1427.6,2225.3,3308.5,144.4,78.4,4
0.067000,676.9,411.5,1434.0,81.9,2171.1,525.9,3322.2,248.8,719.4,1434,2217.5,3320.7,144.1,78.9,3.8
0.069000,693.5,416.9,1436.5,73.0,2148.5,494.1,3307.7,288.9,712.3,1440.1,2217.5,3333.1,143.8,79.3,4.1
0.071000,713.7,432.2,1441.2,68.8,2169.0,467.0,3297.3,362.0,704.4,1446.1,2225.2,3346.1,143.5,79.7,4.8
0.073000,722.6,442.9,1448.5,66.7,2213.3,438.9,3319.7,401.1,695.4,1452,2240.6,3359.9,143.2,79.9,5.3
0.075000,714.8,442.3,1460.3,66.1,2261.2,400.4,3371.0,369.2,685.3,1457.9,2263.2,3374.9,142.9,80,5.5
0.077000,697.0,435.2,1474.5,66.6,2300.4,371.7,3415.4,307.3,673.7,1464.1,2292.2,3391.5,142.6,79.9,5.2
0.079000,676.6,431.0,1486.1,66.7,2338.8,354.4,3445.8,252.6,660.4,1470.6,2326.7,3410,142.3,79.6,4.5
0.081000,654.7,431.7,1490.2,66.6,2379.9,345.0,3462.2,224.3,645.3,1477.4,2365.7,3430.5,141.9,79.3,3.7
0.083000,626.3,423.3,1488.4,68.3,2435.1,331.9,3471.6,224.5,628.2,1484.8,2408,3453.1,141.6,78.9,3.1
0.085000,598.6,398.4,1484.6,72.1,2494.2,300.4,3479.1,251.6,608.9,1492.7,2452.6,3477.6,141.3,78.5,2.9
0.087000,572.8,364.2,1482.6,75.0,2545.2,250.3,3489.4,301.4,587.4,1501,2498.3,3503.7,141,78.1,3.3
0.089000,547.0,329.9,1486.2,73.4,2582.2,203.8,3503.9,362.9,564,1509.7,2544.2,3530.9,140.7,77.7,4.2
0.091000,521.5,298.0,1497.3,68.8,2612.1,175.8,3527.9,415.9,538.6,1518.6,2589.2,3558.6,140.4,77.4,5.2
0.093000,500.6,263.0,1517.5,64.0,2640.2,171.5,3567.8,454.9,511.8,1527.6,2632.5,3586.2,140.1,77.2,6.1
0.095000,488.2,232.9,1539.7,61.7,2661.9,194.8,3612.1,457.3,484,1536.4,2673.6,3613.1,139.8,77,6.7
0.097000,475.5,215.1,1559.1,63.4,2674.0,250.2,3648.3,386.7,455.7,1545,2711.8,3638.7,139.6,76.8,7
0.099000,457.5,224.7,1571.2,72.6,2678.1,335.8,3675.5,282.2,427.7,1553.2,2746.8,3662.3,139.3,76.6,7
0.101000,429.3,291.7,1577.2,98.7,2700.2,475.6,3705.7,203.6,400.5,1560.7,2778.1,3683.7,139,76.4,6.9
0.103000,384.9,440.0,1579.3,150.5,2756.2,681.8,3725.2,173.5,375,1567.5,2805.6,3702.4,138.8,76.1,6.8
0.105000,308.3,648.6,1581.8,235.9,2827.6,904.1,3730.2,166.9,351.9,1573.4,2829.1,3718.4,138.6,75.8,6.9
0.107000,263.2,733.9,1587.9,320.0,2868.0,904.7,3728.6,158.1,331.9,1578.3,2848.4,3731.4,138.3,75.4,7.1
0.109000,294.7,669.1,1597.8,374.0,2890.1,688.6,3730.5,143.4,315.7,1582.2,2863.4,3741.4,138.1,75,7.5
0.111000,320.2,628.6,1599.3,416.3,2906.0,509.3,3737.9,136.2,303.7,1585,2874.2,3748.6,137.9,74.6,7.9
0.113000,326.8,690.4,1577.6,497.7,2911.6,416.8,3747.5,137.2,296.3,1586.7,2880.7,3752.8,137.8,74.2,8.1
0.115000,321.3,843.2,1531.0,609.0,2899.0,379.6,3747.3,136.7,293.8,1587.3,2882.9,3754.2,137.6,73.9,8
