time,f1,b1,f2,b2,f3,b3,f4,b4,f1p,f2p,f3p,f4p,f0,intensity,harmonicity
0.025011,547.7,68.4,1088.1,183.5,2179.8,302.5,3049.3,708.2,574.4,1138.6,2204.6,3035.9,194.6,85.8,-0.5
0.027011,559.7,67.5,1109.6,163.9,2196.7,283.5,3037.0,670.4,574.2,1140.3,2203.2,3024.9,194,86.4,0.1
0.029011,571.0,66.6,1137.5,154.4,2208.5,271.3,3026.9,649.8,574.1,1143.1,2201.1,3007.8,193.3,86.9,1.7
0.031011,580.0,65.3,1164.0,151.6,2212.1,268.7,2997.5,644.5,574.7,1147.1,2198.3,2986.6,192.7,87.3,3.6
0.033011,587.8,66.1,1185.6,153.6,2210.2,274.2,2953.1,639.2,576.2,1152.3,2195.1,2963.7,192,87.6,5.4
0.035011,594.6,70.6,1197.2,157.1,2204.2,284.8,2913.2,617.6,579.4,1158.6,2191.8,2941.6,191.3,87.8,6.6
0.037011,601.7,79.7,1200.4,159.1,2195.8,296.9,2889.5,575.6,584.5,1166.1,2188.6,2923.1,190.6,87.9,7.2
0.039011,608.0,92.7,1197.8,157.9,2188.4,308.0,2887.2,529.2,591.8,1174.5,2185.9,2910.3,189.8,88,7.5
0.041011,613.3,110.3,1192.3,154.6,2182.1,321.1,2898.9,486.8,601.4,1183.6,2184,2905.2,189.1,88,7.6
0.043011,617.9,128.2,1187.3,150.7,2176.1,339.2,2914.0,463.1,613,1193.4,2183.1,2908.8,188.4,87.9,7.5
0.045011,623.7,141.3,1184.3,147.6,2168.6,368.7,2929.0,463.9,626.3,1203.3,2183.4,2921.4,187.6,87.8,7.5
0.047011,631.2,142.8,1185.5,147.9,2161.9,407.9,2947.1,490.7,640.7,1213.2,2185.2,2942.5,186.8,87.5,7.3
0.049011,641.6,131.6,1194.2,152.4,2164.2,445.4,2980.4,538.1,655.3,1222.6,2188.5,2970.8,186.1,87.3,6.9
0.051011,654.3,112.0,1211.3,151.0,2184.6,435.1,3025.6,563.6,669.2,1231.2,2193.5,3004.4,185.4,87,6.5
0.053011,669.7,90.1,1231.9,132.8,2214.9,360.3,3068.9,524.3,681.6,1238.9,2200.3,3041,184.6,86.9,6.2
0.055011,685.1,73.4,1246.8,107.5,2235.8,276.5,3097.3,454.1,691.7,1245.3,2208.8,3078,183.9,86.8,6.2
0.057011,696.7,63.0,1255.8,87.9,2245.8,219.1,3119.1,395.8,698.8,1250.4,2219,3113,183.2,86.8,6.7
0.059011,704.3,57.2,1262.6,74.1,2250.4,182.7,3139.1,340.2,702.6,1254.3,2230.8,3143.6,182.6,86.8,7.5
0.061011,707.0,57.3,1267.2,67.3,2254.4,168.0,3152.8,294.0,703.1,1257,2244.1,3168.3,181.9,87,8.4
0.063011,704.8,63.4,1269.9,65.4,2260.4,170.5,3159.9,261.5,700.5,1259,2258.7,3185.9,181.3,87.1,9.3
0.065011,698.7,72.4,1271.2,64.8,2266.5,183.0,3163.8,246.1,695.2,1260.5,2274.4,3196.1,180.7,87.2,9.7
0.067011,690.3,80.7,1271.7,61.3,2272.5,199.0,3170.8,239.6,688.1,1262,2291,3199.3,180.1,87.2,9.8
0.069011,682.5,83.8,1271.3,54.4,2279.9,210.8,3182.4,233.6,679.9,1263.9,2308.2,3196.4,179.5,87.2,9.6
0.071011,676.7,81.4,1270.4,46.6,2295.3,216.8,3195.6,224.4,671.7,1266.6,2325.6,3189.1,178.9,87.2,9.2
0.073011,673.9,78.0,1269.8,42.3,2322.6,222.8,3201.9,222.3,664.3,1270.5,2342.9,3179.4,178.4,87.1,8.8
0.075011,671.2,76.9,1270.4,42.1,2361.2,238.3,3199.2,234.8,658.4,1275.8,2359.6,3169.3,177.9,87.1,8.5
0.077011,665.7,77.9,1273.4,45.2,2397.0,264.2,3191.7,260.2,654.4,1282.6,2375.4,3160.9,177.4,87,8.2
0.079011,656.2,77.9,1279.3,51.2,2421.2,298.1,3182.3,299.6,652.6,1290.8,2389.8,3156,176.9,87,7.8
0.081011,646.2,73.6,1287.1,59.1,2428.2,329.3,3170.6,352.3,652.9,1300.2,2402.3,3156,176.5,86.9,7.5
0.083011,639.4,65.4,1298.5,69.4,2425.9,357.7,3154.0,427.8,654.7,1310.4,2412.7,3161.9,176,86.9,7.3
0.085011,638.8,58.1,1314.5,79.1,2422.2,389.7,3138.4,515.7,657.4,1321,2420.5,3174,175.6,86.8,7.4
0.087011,643.5,53.6,1334.8,84.5,2419.2,434.2,3140.8,603.1,660.3,1331.4,2425.5,3192,175.2,86.6,8
0.089011,651.1,51.5,1352.1,82.2,2419.9,476.1,3201.0,626.3,662.2,1341.2,2427.5,3215.4,174.8,86.4,9.1
0.091011,657.4,50.2,1361.8,75.1,2418.3,513.3,3265.3,502.0,662.4,1349.7,2426.6,3242.9,174.4,86.2,10.2
0.093011,660.0,48.5,1366.1,67.9,2406.2,597.4,3284.1,410.8,660.1,1356.6,2422.8,3273.4,174,86,11.2
0.095011,658.8,48.2,1367.9,63.4,2396.3,714.3,3301.9,390.0,654.9,1361.6,2416.3,3305.2,173.7,85.8,11.7
0.097011,654.6,48.9,1367.5,59.3,2396.1,760.0,3335.8,395.8,646.5,1364.5,2407.6,3337.1,173.3,85.6,11.6
0.099011,648.1,49.2,1364.0,54.4,2395.4,653.6,3378.8,390.4,635.2,1365.4,2397.2,3367.6,173,85.5,11.2
0.101011,638.1,49.1,1359.3,48.6,2390.8,497.8,3411.5,360.2,621.4,1364.6,2385.7,3395.8,172.7,85.3,10.6
0.103011,624.8,49.6,1356.2,44.1,2387.5,393.2,3426.9,333.8,606,1362.3,2373.8,3420.9,172.4,85.1,9.7
0.105011,606.2,51.3,1354.9,40.9,2383.2,336.6,3438.8,324.3,590,1359,2362.1,3442.2,172.1,84.9,8.7
0.107011,585.0,53.4,1354.8,38.5,2375.1,318.9,3453.1,324.2,574.7,1355.4,2351.4,3459.6,171.8,84.6,7.5
0.109011,561.8,55.1,1354.3,36.3,2360.5,327.0,3470.0,314.3,561.3,1351.8,2342.3,3473.1,171.6,84.2,5.9
0.111011,541.5,56.4,1352.1,35.4,2338.6,356.9,3482.6,286.7,550.8,1348.9,2335.4,3482.5,171.3,83.7,4.3
0.113011,526.0,60.5,1347.8,38.3,2310.7,407.2,3487.4,244.2,544.1,1347,2331,3488.1,171.1,83.1,2.7
0.115011,517.9,72.4,1342.2,46.7,2299.9,446.7,3486.4,204.6,541.8,1346.3,2329.6,3490,170.9,82.2,1.5
