time,f1,b1,f2,b2,f3,b3,f4,b4,f1p,f2p,f3p,f4p,f0,intensity,harmonicity
0.026000,436.3,205.4,1271.1,846.3,2446.2,185.1,3728.9,283.5,452.4,1251.6,2472.6,3646.5,258.1,79.4,14
0.028000,447.6,191.4,1269.4,697.9,2468.5,172.3,3707.7,224.0,455.6,1257.5,2470.4,3650.6,258.7,80.1,13.9
0.030000,458.8,174.1,1276.1,580.1,2481.8,169.9,3682.2,178.6,460.9,1267.5,2466.8,3656.9,259.4,81,13.6
0.032000,470.1,149.6,1286.4,479.7,2479.9,167.1,3656.2,144.5,467.9,1282.1,2462,3664.5,260.1,82,13.2
0.034000,481.5,126.7,1300.0,420.0,2465.2,163.0,3642.9,121.2,476.3,1301.7,2456.1,3672.5,260.8,83,13.1
0.036000,493.4,108.5,1318.6,398.6,2448.5,159.4,3641.5,103.5,485.7,1326.5,2449.5,3679.6,261.6,84.2,13.2
0.038000,504.7,93.0,1342.0,404.4,2436.3,156.9,3642.5,89.9,495.6,1356.9,2442.5,3684.9,262.3,85.3,13.6
0.040000,514.7,78.1,1372.7,431.9,2428.4,157.4,3642.1,79.8,505.7,1392.7,2435.3,3687.5,263.1,86.3,14.2
0.042000,523.4,62.9,1417.5,481.2,2422.3,163.5,3641.2,73.3,515.5,1433.6,2428.4,3686.8,263.8,87.3,14.8
0.044000,529.8,48.7,1472.2,529.4,2416.5,172.0,3640.1,72.6,524.6,1478.8,2422.1,3682.5,264.6,88.1,15.3
0.046000,534.6,36.9,1529.7,558.1,2412.2,177.9,3638.8,78.2,532.8,1527.2,2416.7,3674.9,265.4,88.8,15.6
0.048000,538.2,28.5,1579.1,568.7,2412.2,175.5,3638.5,89.8,539.8,1577.5,2412.7,3664.5,266.1,89.3,15.7
0.050000,541.1,22.9,1620.0,586.6,2416.3,162.8,3641.8,105.1,545.6,1627.7,2410.1,3652.2,266.8,89.7,15.6
0.052000,543.4,19.4,1659.4,639.5,2421.3,146.5,3651.4,117.5,550,1676.1,2409.3,3639.2,267.6,90,15.6
0.054000,545.5,17.0,1708.3,745.7,2424.6,132.0,3666.0,125.6,553.1,1720.5,2410.1,3626.7,268.3,90.2,15.7
0.056000,547.7,15.4,1762.0,910.5,2425.0,119.6,3678.5,136.2,555.1,1759.3,2412.6,3616.2,269,90.2,16.1
0.058000,550.2,15.0,1806.7,1155.3,2423.4,107.9,3682.2,158.8,556.2,1790.6,2416.5,3608.6,269.6,90.3,16.6
0.060000,552.5,16.1,1834.4,1485.0,2421.3,98.5,3673.2,190.7,556.4,1813.4,2421.6,3604.8,270.3,90.3,17.3
0.062000,554.8,18.2,1851.9,1901.7,2419.5,91.3,3652.9,220.4,556.2,1826.9,2427.4,3605.4,270.9,90.2,18
0.064000,556.7,20.7,1862.5,2313.0,2419.2,86.9,3629.7,232.0,555.7,1830.8,2433.4,3610.2,271.5,90.1,18.7
0.066000,558.2,23.0,1865.5,2518.1,2421.4,86.4,3613.8,221.7,555.1,1825.7,2439.2,3618.8,272.1,90,19.3
0.068000,559.3,25.2,1845.3,2394.0,2426.6,90.6,3608.7,199.7,554.7,1812.6,2444.2,3630.3,272.6,89.8,20
0.070000,559.9,27.0,1798.0,2123.8,2433.5,98.0,3611.4,181.5,554.4,1793.1,2448,3643.3,273.1,89.6,20.7
0.072000,559.9,28.7,1740.1,1871.8,2440.6,107.4,3617.1,174.4,554.5,1769.1,2450.2,3656.2,273.6,89.5,21.3
0.074000,559.5,29.9,1685.7,1637.9,2446.9,116.9,3621.7,181.9,554.9,1742.9,2450.7,3667.4,274.1,89.3,21.8
0.076000,558.7,30.2,1646.5,1336.3,2452.8,120.9,3622.1,203.8,555.6,1716.9,2449.4,3675.2,274.6,89.1,22
0.078000,557.9,29.1,1637.4,999.0,2457.8,114.0,3618.3,227.8,556.5,1693.3,2446.7,3678.3,275,88.8,22
0.080000,557.6,27.4,1650.4,705.1,2461.4,101.4,3617.5,235.2,557.6,1674.1,2442.9,3675.8,275.4,88.6,21.9
0.082000,558.0,26.7,1669.6,501.0,2463.9,91.1,3629.1,217.8,558.7,1660.8,2438.8,3667.3,275.8,88.3,21.7
0.084000,558.5,27.7,1685.0,370.6,2465.0,87.1,3650.4,193.7,559.6,1654.6,2435.4,3652.9,276.1,88,21.5
0.086000,558.5,29.4,1692.6,296.6,2463.5,91.2,3665.8,188.0,560.4,1655.8,2433.6,3633.6,276.5,87.7,21.3
0.088000,558.1,31.1,1696.8,255.0,2459.2,103.9,3662.8,196.4,560.7,1664.2,2434.6,3610.7,276.8,87.3,21
0.090000,557.2,32.5,1702.4,237.0,2452.7,126.1,3641.3,193.6,560.7,1679.2,2439.6,3586.2,277.1,86.9,20.7
0.092000,556.0,33.7,1710.5,237.8,2444.4,160.5,3619.2,175.5,560.2,1699.4,2449.6,3562.5,277.4,86.5,20.4
0.094000,554.5,34.4,1721.8,257.7,2432.6,219.0,3605.2,163.7,559.3,1723.2,2465.7,3541.9,277.7,86.1,20.1
0.096000,553.5,35.1,1740.3,297.4,2420.5,320.7,3597.3,178.2,557.9,1748.7,2488.4,3526.8,277.9,85.8,19.9
0.098000,553.2,36.3,1777.8,346.5,2424.3,509.0,3588.0,232.6,556.2,1774.1,2518.1,3519.3,278.1,85.5,19.7
0.100000,553.2,36.9,1825.1,366.8,2480.2,780.1,3569.4,322.5,554.1,1797.5,2554.8,3521.1,278.4,85.3,19.5
0.102000,553.1,36.1,1852.8,380.1,2590.0,1021.2,3538.3,406.2,551.9,1817.5,2598,3533,278.5,85.2,19.4
0.104000,552.9,34.7,1860.9,426.1,2690.6,1172.2,3504.8,446.3,549.4,1832.9,2646.8,3555.2,278.7,85,19.2
0.106000,552.5,33.3,1855.3,515.2,2768.7,1237.3,3482.4,461.7,547,1843.2,2699.8,3587,278.9,84.9,18.9
0.108000,551.5,32.1,1828.7,645.4,2827.8,1123.2,3490.1,482.7,544.6,1848.2,2755.5,3627.1,279,84.7,18.6
0.110000,549.6,30.9,1776.0,768.7,2874.2,844.6,3545.9,511.0,542.4,1848.4,2811.9,3673,279.2,84.4,18.3
0.112000,546.8,30.1,1738.4,792.5,2907.5,622.9,3637.8,504.3,540.4,1844.6,2866.9,3722.2,279.3,84,17.9
0.114000,543.0,29.5,1745.7,693.8,2936.5,516.7,3741.6,455.1,538.6,1838,2918.1,3771.4,279.4,83.6,17.5
0.116000,538.7,29.6,1781.8,536.7,2960.8,495.5,3827.2,382.7,537.1,1829.9,2963.5,3817.4,279.4,83,16.9
0.118000,534.4,31.3,1819.5,415.9,2978.7,519.8,3884.4,325.9,535.9,1821.8,3001.2,3856.9,279.5,82.4,16.2
0.120000,530.3,35.1,1853.7,355.6,2994.5,557.4,3930.7,300.3,535.1,1815,3029.4,3887.4,279.6,81.6,15.5
0.122000,527.5,40.7,1884.2,349.7,3010.3,575.8,3978.4,297.4,534.6,1810.4,3046.8,3906.6,279.6,80.8,14.6
0.124000,526.8,47.8,1914.9,386.6,3021.2,564.2,4033.5,293.8,534.4,1808.8,3052.7,3913.1,279.7,79.9,13.8
