time,f1,b1,f2,b2,f3,b3,f4,b4,f1p,f2p,f3p,f4p,f0,intensity,harmonicity
0.025011,565.0,73.3,1395.8,93.9,2372.0,77.2,3156.2,80.6,574.7,1409.9,2396.4,3203.7,202.2,87,6.9
0.027011,569.7,67.8,1402.5,73.3,2383.6,75.3,3208.4,91.1,575.8,1410.8,2397.1,3208.8,202.4,87,7.8
0.029011,575.0,63.6,1410.8,60.6,2388.2,71.1,3236.3,86.6,577.5,1412.4,2398.3,3217,202.6,87.2,8.9
0.031011,581.5,61.6,1419.9,54.0,2394.7,71.7,3245.2,85.5,580,1414.6,2399.9,3228,202.8,87.3,10.1
0.033011,588.0,60.6,1427.3,49.9,2406.0,78.1,3252.3,89.9,583,1417.3,2401.8,3241.6,203,87.5,11.1
0.035011,593.0,59.7,1431.0,46.5,2418.5,88.5,3264.5,95.6,586.5,1420.6,2403.7,3257.1,203.2,87.6,12.1
0.037011,596.9,58.5,1432.0,43.3,2428.0,101.1,3283.3,98.3,590.4,1424.3,2405.7,3274,203.4,87.8,13
0.039011,599.6,57.0,1432.0,40.8,2428.5,111.2,3303.5,97.2,594.6,1428.5,2407.4,3291.7,203.7,88,13.7
0.041011,601.9,55.3,1432.9,39.5,2420.5,116.2,3321.7,97.6,598.9,1433,2408.9,3309.6,203.9,88.1,14.4
0.043011,604.4,53.7,1435.5,39.4,2412.0,118.2,3338.2,105.3,603.3,1437.7,2409.9,3327.1,204.2,88.2,15.1
0.045011,607.2,53.5,1439.6,40.5,2410.5,121.3,3351.8,120.6,607.7,1442.7,2410.3,3343.7,204.5,88.3,15.7
0.047011,610.6,55.3,1444.8,42.9,2415.9,127.1,3359.5,138.1,612,1447.8,2410,3358.8,204.8,88.4,16.4
0.049011,614.4,58.2,1450.2,46.5,2419.8,132.4,3358.6,149.3,616,1453,2409.1,3372,205.1,88.5,17.2
0.051011,618.3,60.9,1455.6,51.0,2414.4,133.2,3355.8,156.7,619.6,1458.1,2407.3,3383.1,205.4,88.6,17.8
0.053011,622.0,62.4,1460.8,55.9,2401.7,128.3,3359.1,167.1,622.9,1463.1,2404.9,3391.6,205.7,88.6,18.3
0.055011,625.1,62.6,1466.4,60.8,2389.4,120.5,3372.2,183.9,625.8,1468,2401.8,3397.7,206,88.7,18.5
0.057011,627.5,62.2,1472.8,65.5,2382.8,113.8,3390.9,201.0,628.2,1472.7,2398.1,3401.2,206.4,88.7,18.1
0.059011,629.2,61.4,1480.6,70.1,2380.7,109.6,3407.7,209.0,630.1,1477,2393.9,3402.4,206.7,88.8,17.4
0.061011,630.0,59.1,1487.4,73.2,2379.3,109.2,3414.1,202.8,631.5,1481.1,2389.4,3401.4,207,88.8,16.6
0.063011,630.1,55.1,1491.0,74.5,2374.9,112.7,3410.1,187.5,632.5,1484.7,2384.9,3398.6,207.4,88.8,15.8
0.065011,630.3,50.5,1491.2,75.1,2366.6,118.9,3398.6,171.1,633.1,1488,2380.3,3394.5,207.8,88.9,15.4
0.067011,630.6,47.3,1489.9,75.6,2359.1,125.2,3384.6,159.8,633.3,1490.8,2376.1,3389.6,208.1,88.9,15.4
0.069011,630.7,45.9,1488.4,75.3,2356.5,130.0,3371.1,154.7,633.3,1493.3,2372.3,3384.3,208.5,88.9,15.7
0.071011,630.7,45.6,1487.1,73.6,2360.9,132.4,3362.2,156.6,633,1495.3,2369.1,3379.2,208.9,88.9,16.1
0.073011,631.0,45.4,1486.5,71.6,2370.6,132.7,3359.5,165.8,632.6,1497,2366.7,3374.7,209.2,88.9,16.5
0.075011,632.3,45.0,1487.9,70.7,2382.9,131.3,3364.0,182.2,632.2,1498.3,2365.1,3371.5,209.6,88.9,16.9
0.077011,633.9,44.7,1491.8,71.3,2393.2,129.1,3376.6,201.2,631.8,1499.3,2364.4,3369.8,210,89,17.2
0.079011,635.1,44.4,1496.9,72.5,2396.8,127.4,3393.8,214.0,631.4,1500,2364.7,3370.1,210.3,89.1,17.5
0.081011,635.2,43.0,1502.0,73.9,2392.7,128.4,3411.4,218.3,631.3,1500.5,2365.9,3372.4,210.7,89.1,17.8
0.083011,634.7,40.5,1505.9,75.6,2384.9,131.9,3422.5,214.2,631.3,1501,2368,3377,211.1,89.2,18
0.085011,634.2,37.9,1508.7,78.4,2380.0,132.9,3424.4,209.5,631.6,1501.3,2370.7,3383.8,211.4,89.2,17.9
0.087011,634.3,36.3,1511.0,83.6,2378.3,127.4,3421.5,213.7,632.2,1501.7,2373.9,3392.7,211.8,89.3,17.5
0.089011,635.2,35.9,1513.7,92.1,2374.8,119.2,3422.0,229.3,633,1502.3,2377.4,3403.4,212.1,89.3,16.7
0.091011,636.9,36.1,1516.6,104.5,2369.0,112.5,3431.6,260.6,634,1503,2380.9,3415.5,212.4,89.3,15.9
0.093011,638.5,36.5,1517.1,117.8,2365.3,109.7,3443.1,312.1,635.3,1503.9,2384.2,3428.5,212.8,89.3,15.1
0.095011,639.3,36.8,1512.1,127.9,2366.9,111.1,3428.2,376.4,636.7,1505.2,2387,3442,213.1,89.2,14.8
0.097011,639.3,36.4,1504.1,131.1,2371.9,111.9,3382.7,416.5,638.3,1506.9,2389,3455.2,213.4,89.2,15
0.099011,639.2,36.1,1499.8,129.7,2377.5,106.3,3355.3,427.0,639.8,1509,2389.9,3467.6,213.7,89.2,15.5
0.101011,639.5,36.8,1502.1,128.4,2381.9,98.0,3370.3,446.9,641.3,1511.5,2389.7,3478.6,213.9,89.2,16.2
0.103011,640.1,39.1,1509.5,126.3,2384.3,90.6,3429.8,484.8,642.6,1514.5,2388,3487.5,214.2,89.2,16.8
0.105011,640.8,42.9,1518.3,119.4,2383.1,86.0,3513.3,504.9,643.6,1518,2384.8,3493.7,214.4,89.2,17.1
0.107011,641.4,47.1,1524.0,109.3,2377.2,87.1,3570.7,501.2,644.2,1522,2380.1,3496.8,214.7,89.3,17
0.109011,641.5,50.3,1526.2,103.8,2367.8,96.5,3572.7,504.9,644.4,1526.4,2373.9,3496.4,214.9,89.3,16.7
0.111011,640.4,52.2,1528.9,106.0,2358.5,108.6,3538.0,518.4,643.9,1531.2,2366.3,3492.2,215.1,89.3,16.3
0.113011,637.8,52.8,1534.2,114.1,2353.4,116.9,3506.7,552.9,642.8,1536.3,2357.5,3484.1,215.3,89.3,15.8
0.115011,633.7,51.9,1539.8,124.9,2351.9,125.0,3511.3,673.5,641,1541.7,2347.8,3472.2,215.4,89.3,15.5
0.117011,629.4,50.7,1540.3,131.4,2349.6,137.3,3604.1,1778.2,638.3,1547.3,2337.6,3456.6,215.6,89.2,15.3
0.119011,626.6,52.9,1539.3,132.7,2342.3,148.0,3142.6,2052.7,634.7,1553,2327.3,3437.5,215.7,89.2,15.1
0.121011,625.8,59.8,1543.5,134.0,2327.5,146.6,3334.6,2518.8,630.3,1558.6,2317.4,3415.5,215.8,89.1,15
0.123011,625.6,68.0,1550.0,138.3,2311.4,141.0,3485.5,605.4,625,1564.2,2308.3,3391.1,215.9,89.1,14.9
0.125011,624.1,75.8,1558.0,149.5,2306.4,136.9,3367.4,357.7,618.8,1569.5,2300.6,3364.9,216,89,14.7
0.127011,619.8,81.8,1566.3,173.4,2317.1,142.1,3328.3,214.1,611.7,1574.5,2294.8,3337.7,216,89,14.6
0.129011,611.8,83.9,1570.2,219.2,2330.4,170.5,3317.1,161.2,603.8,1579.1,2291.5,3310.3,216,88.9,14.4
0.131011,601.9,83.7,1567.8,288.3,2331.2,227.7,3312.6,153.2,595.1,1583.3,2291.1,3283.3,216,88.8,14.3
0.133011,592.7,86.7,1572.1,373.1,2317.8,295.7,3301.2,161.1,585.7,1586.8,2294,3257.8,216,88.8,14.1
0.135011,585.2,94.8,1599.8,461.8,2305.5,358.7,3278.4,162.3,575.8,1589.7,2300.5,3234.3,215.9,88.7,13.9
0.137011,577.4,105.7,1648.1,546.4,2296.1,439.2,3253.9,154.6,565.3,1591.9,2310.9,3213.5,215.8,88.6,13.8
0.139011,567.5,115.9,1688.7,629.7,2279.0,558.1,3231.5,160.1,554.5,1593.4,2325.3,3196,215.7,88.5,13.6
0.141011,554.1,124.0,1694.8,736.9,2238.3,717.4,3203.6,186.7,543.4,1594.2,2343.7,3182.2,215.6,88.3,13.4
0.143011,537.9,128.6,1646.1,777.7,2212.7,875.6,3165.4,211.5,532.1,1594.3,2366,3172.5,215.4,88.1,13.1
0.145011,521.8,128.4,1591.8,647.3,2293.8,1030.9,3134.7,219.1,520.9,1593.7,2391.9,3167,215.2,87.7,12.7
0.147011,503.9,121.9,1558.5,478.9,2460.5,1079.6,3117.2,232.3,509.7,1592.5,2421.1,3165.6,215,87.2,12
0.149011,484.6,107.2,1540.8,357.6,2588.9,965.0,3114.7,258.8,498.8,1590.7,2453.2,3168.4,214.8,86.6,11
0.151011,466.5,86.1,1527.4,282.5,2631.9,800.1,3128.9,297.0,488.1,1588.4,2487.4,3174.8,214.5,85.8,10
0.153011,453.9,67.1,1516.3,245.5,2613.9,648.7,3158.3,336.0,478,1585.7,2523.1,3184.5,214.2,84.8,9.1
0.155011,448.9,59.8,1518.8,248.6,2599.7,491.1,3202.1,303.7,468.3,1582.7,2559.6,3196.9,213.9,83.8,8.5
0.157011,448.4,64.5,1537.7,295.2,2599.9,393.5,3221.9,243.4,459.4,1579.6,2596.1,3211.4,213.6,82.6,8.2
0.159011,447.0,74.1,1557.7,362.9,2594.1,350.8,3224.4,244.7,451.1,1576.4,2631.6,3227.2,213.3,81.4,8.1
0.161011,441.9,80.7,1559.2,392.1,2595.8,313.8,3214.8,328.6,443.6,1573.2,2665.5,3243.5,212.9,80.2,8.2
0.163011,437.6,84.4,1562.6,370.8,2629.8,256.9,3216.3,467.1,437,1570.2,2696.7,3259.7,212.5,79.2,8.2
0.165011,436.5,88.3,1575.5,336.4,2664.4,209.0,3257.4,422.9,431.4,1567.4,2724.6,3274.8,212.2,78.4,8
0.167011,435.9,97.2,1591.1,320.2,2697.3,198.3,3283.7,311.8,426.7,1565,2748.5,3288.3,211.8,77.6,7.5
0.169011,433.6,115.4,1601.5,316.9,2742.8,209.4,3303.8,259.0,423,1563,2767.8,3299.4,211.4,77,6.9
0.171011,430.4,141.2,1597.4,308.1,2798.3,219.6,3329.1,249.5,420.3,1561.6,2781.9,3307.8,211.1,76.4,6.2
0.173011,427.2,169.3,1585.2,286.6,2846.2,210.2,3359.9,253.1,418.7,1560.7,2790.5,3312.9,210.7,75.8,5.6
0.175011,422.3,198.0,1577.8,264.4,2864.4,192.9,3383.4,255.8,418.1,1560.4,2793.4,3314.7,210.4,75.2,5.1
