time,f1,b1,f2,b2,f3,b3,f4,b4,f1p,f2p,f3p,f4p,f0,intensity,harmonicity
0.025292,834.6,26.8,1376.9,170.0,2409.7,206.5,2966.1,162.6,838.8,1405,2379.1,2938.4,276.7,88.8,14.7
0.027292,839.1,26.3,1395.3,144.3,2412.3,191.4,2966.9,158.7,839.5,1404.8,2384.7,2941.2,276.8,89,14.8
0.029292,843.5,28.8,1407.0,135.0,2417.2,180.4,2966.0,155.9,840.6,1404.7,2393.6,2946,276.9,89.2,14.8
0.031292,847.4,32.4,1414.8,133.2,2421.6,171.4,2962.0,160.3,842.2,1404.8,2404.9,2952.9,277,89.4,14.9
0.033292,849.9,35.2,1419.3,133.4,2424.4,163.8,2954.7,175.6,844.3,1405.4,2417.7,2962,277.2,89.5,15
0.035292,850.9,36.5,1420.8,134.0,2426.6,159.4,2944.2,208.9,846.8,1406.8,2430.7,2973.4,277.3,89.6,15.4
0.037292,851.1,37.2,1420.5,135.3,2430.2,161.0,2933.4,274.3,849.8,1409.3,2442.8,2987,277.5,89.6,16.1
0.039292,851.4,38.4,1420.9,136.7,2437.0,166.2,2935.2,393.1,853.1,1413.2,2452.6,3002.8,277.7,89.6,16.8
0.041292,852.7,40.0,1423.4,133.4,2441.5,166.3,2974.1,557.9,856.9,1418.8,2459,3020.5,277.9,89.7,17.6
0.043292,855.0,41.2,1426.1,123.4,2433.6,168.7,3046.2,679.3,861.1,1426.2,2461,3039.5,278.1,89.7,18
0.045292,858.2,42.4,1429.0,112.6,2414.5,184.2,3104.3,691.7,865.7,1435.6,2458,3059.4,278.4,89.7,18
0.047292,862.6,45.2,1434.9,107.8,2391.1,210.8,3129.9,636.0,870.6,1446.9,2449.5,3079.3,278.6,89.7,17.5
0.049292,868.9,51.5,1446.6,111.9,2372.4,244.5,3142.9,575.2,875.8,1460.2,2435.5,3098.2,278.9,89.7,16.7
0.051292,877.4,61.8,1464.9,123.8,2365.2,284.2,3151.6,549.0,881.2,1475.2,2416.1,3115.2,279.1,89.7,16
0.053292,887.5,74.2,1487.3,138.8,2367.9,331.2,3152.3,594.6,886.8,1491.6,2392,3129.1,279.4,89.6,15.5
0.055292,898.1,86.6,1510.9,152.6,2376.9,384.3,3150.2,719.4,892.6,1509,2364.1,3139,279.7,89.5,15.6
0.057292,907.8,96.9,1533.3,163.1,2386.1,440.5,3143.3,889.8,898.4,1527,2333.4,3144,280.1,89.4,16.3
0.059292,915.4,104.0,1552.7,170.7,2385.7,506.2,3109.8,1039.0,904.3,1545.1,2301.4,3143.3,280.4,89.3,17.3
0.061292,920.6,108.0,1569.0,176.7,2368.1,582.6,3053.7,1097.8,910.2,1562.9,2269.4,3136.4,280.7,89.2,18.3
0.063292,924.1,109.4,1583.9,180.6,2329.9,643.5,3033.8,1072.3,915.9,1579.7,2238.8,3123.2,281.1,89.2,18.9
0.065292,926.5,109.3,1597.3,181.6,2271.8,664.8,3066.9,989.1,921.5,1595.2,2210.9,3103.9,281.5,89.1,18.8
0.067292,927.9,108.5,1607.2,182.3,2201.2,650.0,3104.3,858.3,926.8,1608.8,2187,3079,281.9,89.1,18.1
0.069292,928.9,107.4,1614.9,184.5,2143.1,616.7,3112.1,748.7,931.9,1620.4,2168,3049.4,282.3,89.1,17.1
0.071292,930.2,106.3,1624.5,186.1,2118.7,595.6,3089.6,705.1,936.6,1629.6,2154.7,3016.3,282.7,89,16
0.073292,931.5,105.5,1636.9,186.4,2122.1,598.3,3040.3,708.3,941,1636.2,2147.6,2981.1,283.1,88.9,15.2
0.075292,932.6,105.6,1647.2,188.3,2130.3,609.1,2971.9,697.9,944.9,1640.2,2146.6,2945.4,283.5,88.8,15
0.077292,933.9,108.1,1649.9,194.6,2125.6,608.7,2905.1,628.1,948.4,1641.8,2151.9,2910.9,283.9,88.6,15.3
0.079292,937.1,114.3,1643.8,204.1,2112.8,592.4,2856.9,521.8,951.3,1640.9,2162.8,2879.3,284.3,88.3,15.8
0.081292,943.6,123.7,1633.8,212.7,2107.2,580.9,2825.7,428.0,953.7,1637.8,2178.7,2852,284.8,88.1,16.4
0.083292,954.8,135.0,1624.6,219.8,2116.1,595.6,2801.4,355.1,955.6,1632.8,2198.9,2830.2,285.2,87.9,16.8
0.085292,968.1,142.9,1619.3,223.2,2145.8,642.5,2784.4,308.8,956.9,1626.3,2222.4,2814.9,285.6,87.8,16.9
0.087292,978.3,144.0,1615.4,220.5,2201.1,696.3,2775.7,282.3,957.6,1618.4,2248.2,2806.5,286,87.8,16.7
0.089292,980.5,139.4,1608.8,213.0,2276.8,706.6,2777.6,270.3,957.7,1609.6,2275.2,2805.1,286.4,87.9,16.3
0.091292,974.7,132.1,1598.9,204.6,2354.4,646.3,2792.8,271.7,957.3,1600.2,2302.7,2810.3,286.8,88,15.9
0.093292,965.0,123.9,1588.5,197.7,2414.1,542.9,2822.5,280.5,956.2,1590.4,2329.7,2821.2,287.2,88.2,15.3
0.095292,955.1,115.6,1579.9,192.0,2448.5,448.0,2861.3,282.3,954.6,1580.6,2355.6,2836.6,287.6,88.4,14.7
0.097292,947.3,107.6,1574.0,185.1,2463.8,388.8,2897.2,271.7,952.4,1570.8,2379.9,2855,288,88.7,13.6
0.099292,941.0,99.8,1569.1,174.7,2467.7,362.6,2922.2,254.6,949.6,1561.3,2402.1,2874.8,288.3,88.8,12.4
0.101292,935.1,92.4,1562.6,160.8,2466.1,357.4,2933.4,235.7,946.4,1552.1,2422.1,2894.2,288.6,89,11.4
0.103292,929.4,85.7,1552.3,144.5,2464.1,361.6,2931.9,215.4,942.8,1543.4,2439.9,2911.5,288.9,89,10.9
0.105292,924.4,80.3,1538.2,126.3,2463.8,364.1,2923.0,192.4,938.7,1535.1,2455.6,2925.1,289.2,89,11.2
0.107292,921.3,76.9,1522.9,107.3,2462.6,356.9,2913.5,168.2,934.4,1527.2,2469.2,2933.7,289.5,88.9,12.3
0.109292,920.5,76.4,1510.4,90.7,2456.1,340.4,2906.9,146.9,929.8,1519.7,2481.1,2936.6,289.7,88.8,13.9
0.111292,922.2,79.9,1502.8,78.7,2443.8,320.2,2902.1,132.9,925.1,1512.7,2491.5,2933.3,289.9,88.7,15.6
0.113292,925.5,87.7,1499.1,70.5,2432.9,300.6,2896.9,129.7,920.3,1506.1,2500.6,2923.7,290.1,88.6,17
0.115292,928.7,98.0,1496.9,63.9,2432.7,282.9,2890.0,137.9,915.6,1499.9,2508.7,2908.5,290.3,88.5,17.8
0.117292,928.8,105.5,1494.7,56.8,2444.2,266.3,2881.1,154.0,911,1494.1,2515.8,2888.5,290.4,88.5,18.2
0.119292,923.7,103.6,1491.9,49.0,2461.6,250.3,2870.1,172.9,906.6,1488.7,2522.2,2865.1,290.6,88.5,18.3
0.121292,915.2,91.5,1488.5,41.6,2480.3,239.1,2855.4,193.1,902.6,1483.9,2527.9,2839.9,290.7,88.4,18.2
0.123292,906.7,75.9,1484.6,35.8,2500.8,236.5,2835.8,218.5,899.1,1479.7,2532.8,2814.5,290.8,88.4,18
0.125292,899.5,62.8,1480.1,31.6,2526.6,241.6,2809.1,256.1,896,1476.1,2537,2790.7,290.9,88.3,17.7
0.127292,893.1,54.0,1475.5,28.7,2564.9,242.7,2771.7,322.2,893.6,1473.2,2540.4,2770.2,290.9,88.2,17.4
0.129292,886.4,49.2,1471.2,26.9,2609.7,188.0,2735.7,470.4,891.8,1471.1,2542.9,2754.4,291,88,16.8
0.131292,878.9,46.9,1467.6,26.5,2620.0,125.7,2744.0,639.0,890.7,1469.8,2544.4,2744.5,291,87.7,16.3
0.133292,870.9,45.3,1464.4,27.9,2621.1,100.9,2749.3,748.9,890.3,1469.4,2544.9,2741.1,291,87.3,15.6
