time,f1,b1,f2,b2,f3,b3,f4,b4,f1p,f2p,f3p,f4p,f0,intensity,harmonicity
0.025460,492.6,253.2,1238.0,93.4,2400.4,77.3,3199.7,379.6,525.2,1229.2,2406.3,3147.6,0,74.2,-39
0.027460,504.4,177.7,1224.7,67.3,2404.5,66.3,3183.5,323.9,525.1,1229.5,2406.9,3150.1,0,75.4,1.2
0.029460,509.0,138.0,1219.6,56.2,2407.8,63.2,3166.4,283.8,525.2,1230,2408,3154.2,0,76.2,14.1
0.031460,512.4,120.1,1220.9,54.6,2409.9,66.9,3149.0,263.3,525.5,1230.9,2409.5,3159.7,0,76.7,15.7
0.033460,517.1,121.9,1227.2,60.8,2412.6,79.0,3140.9,262.4,526.1,1232,2411.5,3166.4,0,76.8,10.9
0.035460,525.2,144.9,1237.1,71.7,2417.1,104.9,3146.0,266.1,527.3,1233.6,2414.1,3174,0,76.7,4.6
0.037460,535.8,189.8,1244.3,78.6,2420.1,143.5,3156.9,249.3,529.3,1235.6,2417.2,3182.2,0,76.6,1.6
0.039460,544.6,245.6,1245.7,76.4,2419.2,177.5,3167.7,211.7,532.3,1238.1,2421,3190.6,0,76.4,1.9
0.041460,547.0,261.4,1245.3,68.9,2420.5,174.0,3179.8,181.3,536.5,1241.3,2425.5,3198.9,154,76.4,2.3
0.043460,549.8,237.3,1247.4,62.6,2428.6,151.0,3194.7,167.0,542.1,1245.2,2430.7,3206.9,154.1,76.5,2.8
0.045460,557.1,211.5,1253.1,61.9,2440.4,134.9,3209.7,167.3,549.4,1249.8,2436.5,3214.1,154.3,76.6,3.3
0.047460,570.4,197.4,1261.5,66.9,2454.3,126.9,3224.1,171.4,558.4,1255.1,2443.1,3220.2,154.5,76.7,3.9
0.049460,588.4,195.9,1267.9,76.2,2463.9,123.0,3233.1,166.1,569.2,1261.3,2450.3,3225,154.8,76.7,4.6
0.051460,611.2,204.7,1268.4,90.0,2467.4,122.1,3234.2,148.5,581.8,1268.2,2458,3228.4,155,76.7,5.4
0.053460,632.1,220.6,1264.8,106.0,2469.2,127.3,3228.7,130.5,596.2,1276,2466.3,3230.1,155.3,76.8,6.3
0.055460,649.2,234.7,1265.9,121.4,2475.9,137.6,3221.8,120.4,612.3,1284.4,2474.9,3230.1,155.6,77,6.9
0.057460,661.0,235.5,1277.8,133.4,2488.3,145.5,3222.0,122.4,630,1293.5,2483.8,3228.4,156,77.1,7.4
0.059460,670.8,226.8,1299.4,144.1,2501.7,145.7,3233.3,135.4,648.9,1303.2,2492.7,3225,156.4,77.3,7.4
0.061460,679.1,217.9,1321.3,147.2,2506.0,136.4,3250.2,150.5,668.8,1313.3,2501.6,3220.2,156.9,77.5,7.2
0.063460,686.4,208.6,1337.5,134.9,2498.2,118.3,3260.7,155.7,689.3,1323.8,2510.2,3213.9,157.4,77.6,6.8
0.065460,692.6,196.7,1345.6,110.9,2485.1,99.3,3252.2,144.8,710.2,1334.4,2518.3,3206.6,157.9,77.7,6.4
0.067460,699.7,187.1,1349.9,88.2,2476.4,89.7,3227.3,129.4,731,1345,2525.7,3198.5,158.5,77.8,6.2
0.069460,710.8,188.4,1356.0,72.6,2476.7,97.3,3194.9,123.1,751.3,1355.5,2532.3,3189.8,159.2,77.9,6
0.071460,725.8,204.7,1366.0,65.0,2489.3,131.6,3165.9,134.9,770.7,1365.8,2538,3181,159.9,78.1,5.7
0.073460,745.2,229.6,1377.8,59.7,2518.7,207.5,3136.8,163.2,789,1375.6,2542.5,3172.3,160.6,78.3,5.6
0.075460,765.7,256.1,1387.0,56.1,2563.4,314.1,3113.6,195.7,805.6,1384.9,2545.7,3164,161.4,78.6,5.6
0.077460,789.8,291.5,1394.2,55.9,2618.0,407.6,3109.0,222.9,820.5,1393.5,2547.6,3156.6,162.3,78.8,5.9
0.079460,816.2,331.0,1399.4,59.5,2647.0,424.0,3125.2,228.0,833.3,1401.4,2548.2,3150.1,163.2,79.1,6.8
0.081460,844.4,369.5,1403.4,65.3,2637.2,385.8,3143.0,207.3,844,1408.5,2547.5,3145,164.2,79.4,8.2
0.083460,862.9,391.8,1406.6,68.7,2602.1,324.4,3147.6,175.4,852.3,1414.7,2545.4,3141.4,165.3,79.6,9.7
0.085460,867.8,389.2,1410.7,67.1,2554.8,248.0,3141.2,141.0,858.3,1420,2542.2,3139.4,166.4,79.9,10.7
0.087460,864.5,358.4,1415.4,61.8,2514.0,182.1,3132.3,113.9,862.1,1424.5,2537.8,3139.2,0,80,10.8
0.089460,863.2,313.3,1421.3,57.1,2485.8,138.3,3129.6,95.6,863.8,1428.1,2532.6,3140.7,0,80.2,9.6
0.091460,869.0,278.6,1428.3,56.8,2473.6,122.5,3136.9,88.0,863.5,1431,2526.7,3144,0,80.4,7.3
0.093460,878.8,258.6,1436.5,61.1,2473.5,125.9,3153.1,88.2,861.5,1433.2,2520.3,3149,0,80.5,4.6
0.095460,885.7,257.7,1443.3,68.8,2481.7,140.0,3175.8,92.5,858,1434.8,2513.8,3155.6,0,80.5,2
0.097460,888.5,274.1,1448.4,80.9,2492.3,155.3,3202.8,95.8,853.3,1435.9,2507.3,3163.8,0,80.6,0.2
0.099460,888.4,300.4,1450.3,96.3,2499.4,161.8,3222.5,94.1,847.7,1436.7,2501.2,3173.3,0,80.6,-0.8
0.101460,885.6,324.7,1446.7,108.3,2501.1,157.2,3228.2,88.6,841.5,1437.2,2495.6,3184,0,80.6,-1.4
0.103460,877.5,338.3,1437.2,110.0,2496.5,144.0,3223.1,81.5,834.8,1437.6,2491,3195.7,0,80.5,-1.6
0.105460,864.2,337.2,1427.6,104.0,2488.2,130.3,3215.1,76.3,828.1,1438,2487.4,3208.3,0,80.4,-1.6
0.107460,842.8,331.2,1422.7,100.6,2481.4,123.3,3211.6,76.0,821.4,1438.5,2485.2,3221.6,0,80.3,-1.6
0.109460,815.4,324.2,1426.3,104.2,2482.3,126.5,3215.6,80.7,814.8,1439.2,2484.5,3235.5,0,80.3,-1.3
0.111460,786.7,305.1,1438.4,107.5,2490.5,132.3,3223.7,85.4,808.5,1440,2485.4,3249.8,0,80.2,-0.8
0.113460,765.1,277.7,1451.7,102.2,2498.3,129.0,3231.4,87.0,802.5,1441.2,2488,3264.7,0,80.2,-0.1
0.115460,750.8,257.4,1460.5,91.4,2502.0,116.1,3240.5,89.4,796.7,1442.6,2492.4,3279.8,0,80.3,0.5
0.117460,745.8,259.8,1461.6,83.7,2504.5,104.6,3254.2,96.6,791.1,1444.3,2498.6,3295.4,0,80.3,1
0.119460,748.7,290.5,1456.4,82.0,2510.0,101.0,3277.5,109.3,785.4,1446.2,2506.4,3311.3,0,80.3,1.2
0.121460,754.5,342.3,1449.4,85.9,2517.5,107.7,3309.5,122.2,779.6,1448.4,2515.9,3327.7,0,80.3,1.3
0.123460,757.9,403.1,1445.0,93.1,2523.9,124.9,3351.0,130.5,773.3,1450.7,2527,3344.5,0,80.3,1.4
0.125460,756.4,448.4,1445.2,99.6,2527.4,147.0,3389.8,128.7,766.3,1453.1,2539.3,3361.9,0,80.4,1.5
0.127460,751.0,479.1,1447.2,103.0,2540.8,165.4,3416.5,122.4,758.5,1455.6,2552.9,3380,194.5,80.6,1.8
0.129460,741.5,495.0,1448.2,100.9,2575.6,159.6,3427.2,122.0,749.6,1457.9,2567.3,3398.7,195.6,80.8,2.3
0.131460,726.4,494.1,1448.7,94.4,2613.6,126.3,3432.6,128.0,739.4,1460.2,2582.5,3418.1,196.6,81.2,2.9
0.133460,712.6,489.9,1450.5,92.2,2634.8,93.4,3442.7,143.1,727.7,1462.2,2598.2,3438.3,197.6,81.6,3.6
0.135460,704.8,481.0,1454.0,97.0,2644.7,71.5,3463.6,166.5,714.5,1463.9,2614.2,3459.3,198.5,82,4.4
0.137460,699.0,440.7,1458.7,103.3,2650.2,54.4,3494.3,191.9,699.7,1465.2,2630.1,3481,199.4,82.3,5
0.139460,690.7,370.1,1463.0,103.7,2653.1,42.2,3521.3,215.5,683.3,1466.2,2645.9,3503.3,200.2,82.6,5.6
0.141460,677.9,291.2,1465.5,96.5,2655.5,34.6,3538.8,250.3,665.4,1466.7,2661.3,3526.2,200.9,82.8,6.2
0.143460,663.8,234.3,1466.6,84.9,2658.2,32.6,3546.6,291.8,646.3,1466.9,2676.1,3549.3,201.6,82.9,6.7
0.145460,649.3,202.9,1469.2,72.7,2661.7,36.1,3558.1,303.2,626.2,1466.6,2690.2,3572.6,202.2,82.9,7.2
0.147460,636.1,198.5,1473.5,65.0,2666.4,46.7,3579.9,271.6,605.4,1465.9,2703.4,3595.8,202.8,82.8,7.4
0.149460,622.6,216.9,1478.4,62.3,2675.4,69.5,3606.8,238.2,584.2,1465,2715.7,3618.5,203.3,82.6,7.5
0.151460,609.6,250.5,1481.9,63.0,2692.6,103.4,3633.2,228.0,563.1,1463.7,2726.9,3640.4,203.7,82.4,7.4
0.153460,594.4,288.2,1482.9,63.5,2719.7,136.7,3660.8,235.7,542.5,1462.3,2737,3661.2,204.1,82,7.2
0.155460,576.7,310.8,1480.8,61.5,2741.3,149.2,3681.5,255.4,523,1460.8,2745.9,3680.7,204.5,81.6,6.9
0.157460,554.3,317.7,1476.2,58.9,2748.0,149.4,3687.7,299.4,504.9,1459.2,2753.6,3698.3,204.8,81.1,6.7
0.159460,529.8,322.6,1470.7,59.3,2745.3,148.3,3675.8,365.2,488.7,1457.7,2760.1,3713.9,205.1,80.6,6.6
0.161460,501.4,350.4,1463.5,64.8,2750.1,141.2,3670.9,399.4,474.8,1456.4,2765.5,3727.1,205.3,80,6.4
0.163460,467.0,406.4,1453.7,71.8,2767.8,126.0,3701.2,373.5,463.6,1455.3,2769.6,3737.6,205.5,79.4,6.3
0.165460,416.3,479.0,1440.5,74.8,2792.2,106.8,3751.9,316.3,455.4,1454.4,2772.6,3745.3,205.7,78.8,6.1
0.167460,355.4,537.9,1427.7,74.3,2814.9,92.2,3798.2,255.7,450.4,1453.9,2774.3,3749.9,205.8,78.2,5.9
0.169460,299.5,573.7,1416.0,80.3,2835.9,88.2,3830.3,206.3,448.7,1453.7,2774.9,3751.5,205.9,77.7,5.7
