time,f1,b1,f2,b2,f3,b3,f4,b4,f1p,f2p,f3p,f4p,f0,intensity,harmonicity
0.026000,554.1,207.0,982.0,152.0,2718.0,177.8,3939.6,252.8,574.9,966.4,2721.4,3927.8,208.5,78,14.7
0.028000,562.0,213.5,978.5,148.5,2714.8,173.2,3920.5,220.2,576.5,968.4,2723.4,3924.6,207.9,79.3,22.6
0.030000,571.4,219.4,976.1,144.8,2713.0,171.4,3901.6,188.4,578.9,971.6,2726.6,3919.4,207.2,80.3,21.8
0.032000,582.0,224.8,974.9,142.9,2719.2,173.4,3889.7,166.4,582.2,975.6,2731,3912.4,206.6,81.1,16.8
0.034000,592.3,225.0,975.3,140.4,2733.6,181.2,3887.1,165.6,586.1,980.2,2736.3,3903.8,205.8,81.7,12.2
0.036000,600.7,214.6,977.7,134.2,2750.9,190.8,3896.1,203.2,590.4,984.9,2742.3,3894,205.1,82.2,11.7
0.038000,607.5,201.1,981.6,129.2,2764.8,186.0,3910.8,286.6,594.9,989.4,2748.9,3883.3,204.3,82.4,11.6
0.040000,614.4,193.2,985.8,130.9,2775.8,163.0,3900.6,379.1,599.3,993.2,2755.8,3872.1,203.5,82.6,11.2
0.042000,619.7,187.9,989.7,136.5,2780.4,131.8,3867.3,351.6,603.4,996,2762.8,3860.7,202.7,82.7,10.6
0.044000,620.9,180.5,992.0,138.4,2778.7,103.5,3848.7,262.7,606.9,997.4,2769.7,3849.5,201.8,82.7,10
0.046000,618.6,171.9,992.6,133.7,2775.7,81.4,3837.3,181.8,609.8,997.4,2776.3,3838.9,201,82.7,9.6
0.048000,614.3,166.2,991.7,124.4,2775.0,69.7,3828.9,134.2,611.7,995.8,2782.6,3829.2,200.2,82.7,9.1
0.050000,608.7,163.8,989.9,112.4,2776.9,66.9,3820.4,109.7,612.7,992.7,2788.5,3820.7,199.3,82.6,8.6
0.052000,602.1,161.5,987.3,98.9,2782.0,71.1,3812.2,99.0,612.6,988.2,2793.9,3813.6,198.5,82.7,8.2
0.054000,596.3,155.7,983.9,87.3,2791.6,78.2,3808.2,96.3,611.6,982.5,2798.8,3808,197.7,82.8,8.1
0.056000,592.5,146.5,979.7,79.0,2805.9,83.0,3809.4,95.7,609.5,976,2803.4,3803.9,197,82.9,8.4
0.058000,590.9,139.0,974.6,75.5,2818.1,83.7,3810.5,91.9,606.6,969,2807.6,3801.5,196.3,83.1,9.2
0.060000,591.4,138.9,968.9,76.5,2821.3,83.3,3805.9,85.3,603,961.9,2811.6,3800.6,195.6,83.2,10.2
0.062000,593.4,147.3,962.4,79.7,2818.0,85.0,3797.5,80.8,598.9,955,2815.5,3801.1,195,83.4,11.3
0.064000,595.7,164.0,956.1,83.0,2813.9,90.3,3791.1,83.7,594.5,948.8,2819.4,3802.9,194.4,83.4,12.2
0.066000,597.9,191.2,950.3,87.0,2812.6,99.7,3788.1,97.5,590,943.4,2823.3,3805.6,193.9,83.3,12.6
0.068000,599.5,231.8,944.1,90.8,2815.5,108.9,3789.5,125.6,585.6,939.1,2827.5,3809.2,193.4,83.1,12.7
0.070000,598.8,279.0,937.7,90.5,2821.6,110.2,3795.0,165.9,581.6,935.9,2831.9,3813.3,193.1,82.8,12.6
0.072000,593.1,328.5,932.1,83.9,2829.1,104.1,3802.9,215.9,578.1,933.9,2836.5,3817.7,192.8,82.5,12.3
0.074000,581.4,375.1,928.7,72.2,2837.8,96.2,3814.2,260.4,575.3,932.9,2841.4,3822.1,192.6,82.2,12
0.076000,568.9,405.2,927.9,61.5,2847.2,91.6,3830.9,264.3,573.2,932.8,2846.5,3826.5,192.5,81.9,11.7
0.078000,560.9,408.4,928.6,54.7,2858.3,89.9,3849.8,222.7,572,933.4,2851.7,3830.5,192.5,81.7,11.2
0.080000,561.2,372.4,929.6,53.7,2868.4,88.0,3859.4,173.3,571.6,934.4,2857.1,3834.1,192.5,81.6,10.7
0.082000,565.6,311.2,930.3,56.7,2874.8,83.4,3861.6,141.9,572,935.7,2862.4,3837.4,192.7,81.6,10.2
0.084000,570.1,256.5,930.4,61.1,2877.4,78.3,3861.0,134.0,573,936.9,2867.5,3840.1,193,81.5,9.8
0.086000,574.3,230.2,931.4,63.6,2879.5,76.0,3858.3,149.8,574.6,938.1,2872.5,3842.6,193.3,81.6,9.6
0.088000,580.4,231.4,934.6,61.9,2885.0,76.6,3852.8,185.1,576.5,939,2877.1,3844.8,193.8,81.6,9.8
0.090000,588.3,259.2,937.9,56.6,2892.3,78.8,3849.4,221.6,578.6,939.8,2881.3,3847,194.3,81.5,10.2
0.092000,595.9,313.1,940.0,49.9,2896.9,83.1,3850.8,240.9,580.6,940.6,2885.1,3849.3,194.9,81.5,10.5
0.094000,597.7,396.3,941.2,43.4,2895.0,92.3,3852.4,234.4,582.2,941.6,2888.5,3852,195.7,81.4,10.5
0.096000,587.8,490.4,942.4,38.9,2886.7,107.7,3849.3,215.9,583.4,943.1,2891.4,3855.3,196.5,81.4,10
0.098000,569.9,563.1,944.9,37.7,2875.0,127.8,3840.5,203.2,583.8,945.5,2894,3859.4,197.4,81.3,9
0.100000,558.2,569.2,950.1,41.6,2866.0,146.5,3829.0,201.9,583.4,949.2,2896.2,3864.5,198.3,81.2,7.6
0.102000,561.2,498.6,959.5,50.3,2866.6,153.3,3822.8,214.6,581.9,954.5,2898.2,3870.7,199.4,81.2,6.3
0.104000,568.5,389.9,975.1,60.6,2877.4,147.1,3829.2,250.3,579.4,961.9,2900,3878.2,200.4,81.3,5.4
0.106000,572.0,299.1,992.6,65.8,2892.0,134.3,3854.6,307.1,575.7,971.5,2901.8,3887,201.6,81.6,5.2
0.108000,573.6,237.4,1007.6,65.9,2906.1,122.8,3899.3,365.2,571,983.5,2903.5,3897,202.8,81.8,5.6
0.110000,573.9,201.7,1018.7,65.2,2917.4,119.4,3952.2,386.7,565.3,998,2905.3,3908.1,204,82.1,6.3
0.112000,571.7,190.1,1027.3,67.8,2924.3,128.2,3986.8,338.2,558.8,1014.7,2907.2,3920.2,205.3,82.4,7.2
0.114000,565.4,195.0,1036.2,75.0,2926.6,149.4,3990.5,277.2,551.5,1033.4,2909.3,3933.1,206.5,82.5,7.9
0.116000,554.3,212.7,1046.1,87.2,2925.4,178.9,3983.4,227.1,543.9,1053.7,2911.4,3946.3,207.8,82.6,8.1
0.118000,541.2,238.4,1054.7,102.4,2926.2,200.2,3973.3,188.9,536,1074.8,2913.7,3959.6,209.1,82.6,8
0.120000,528.2,265.1,1061.4,120.1,2931.0,205.1,3966.4,166.4,528.2,1096.1,2915.9,3972.6,210.4,82.6,7.7
0.122000,519.3,276.5,1067.4,140.2,2935.8,196.9,3964.5,163.5,520.8,1116.8,2918.1,3984.9,211.7,82.6,7.4
0.124000,515.1,263.7,1077.0,167.8,2937.0,185.4,3966.8,177.7,514,1136.1,2920.2,3996.1,212.9,82.6,7.2
0.126000,512.7,227.5,1095.1,208.9,2932.8,179.0,3973.6,206.4,508,1153.3,2922.1,4005.9,214.2,82.7,7.4
0.128000,507.8,180.0,1125.7,259.9,2923.9,181.0,3984.2,237.5,503.1,1167.4,2923.7,4013.8,215.4,82.9,7.8
0.130000,497.9,126.6,1178.1,317.3,2912.2,188.5,4003.2,264.2,499.5,1178,2924.9,4019.7,216.5,83.2,8.3
0.132000,487.4,83.5,1247.7,360.0,2902.0,194.7,4032.5,270.7,497.2,1184.6,2925.6,4023.3,217.6,83.4,8.9
0.134000,481.7,56.8,1317.4,381.3,2891.0,197.5,4058.9,248.0,496.5,1186.8,2925.9,4024.6,218.7,83.6,9.3
