time,f1,b1,f2,b2,f3,b3,f4,b4,f1p,f2p,f3p,f4p,f0,intensity,harmonicity
0.025011,442.6,119.5,1133.5,160.1,2306.9,1142.4,3086.4,53.5,449,1137.5,2257.6,3063.3,132.3,81.9,8
0.027011,450.0,116.4,1119.9,148.7,2262.1,976.1,3091.0,65.9,451.4,1135.1,2260.3,3065.2,132.3,82.5,9
0.029011,456.9,118.6,1114.0,137.9,2261.6,862.6,3088.6,77.0,455.1,1131.5,2264.8,3068.3,132.3,83,10.7
0.031011,463.9,113.3,1113.0,125.0,2267.0,784.1,3080.3,78.1,460,1127.2,2270.9,3072.6,132.4,83.5,12.8
0.033011,469.9,101.8,1114.8,113.9,2268.3,710.8,3069.5,72.6,465.9,1123.1,2278.6,3078,132.4,84,14.7
0.035011,475.6,93.7,1119.3,110.3,2277.4,654.1,3061.7,69.7,472.4,1119.8,2287.5,3084.6,132.4,84.4,16
0.037011,481.6,90.4,1126.3,112.5,2297.1,634.2,3061.9,73.9,479.1,1118.1,2297.7,3092.2,132.4,84.8,16.7
0.039011,487.9,87.0,1134.9,114.6,2318.3,649.6,3070.0,83.5,485.7,1118.8,2308.7,3100.7,132.4,85.2,17
0.041011,492.7,83.0,1143.5,115.9,2326.1,697.0,3083.1,94.5,492,1122.2,2320.3,3110,132.4,85.5,17.1
0.043011,496.7,82.5,1153.4,119.4,2326.4,779.1,3101.8,107.1,497.6,1128.7,2332.3,3120,132.3,85.7,17.2
0.045011,500.3,82.7,1163.9,120.4,2332.2,850.1,3128.1,120.2,502.4,1138.2,2344.3,3130.3,132.3,86,17.5
0.047011,502.4,79.0,1172.2,114.6,2337.6,845.0,3154.0,126.2,506.1,1150.2,2356.1,3140.9,132.3,86.2,17.9
0.049011,503.4,73.3,1179.4,107.0,2332.3,787.9,3172.6,126.1,508.8,1164.3,2367.4,3151.5,132.2,86.4,18.3
0.051011,504.2,69.8,1186.1,103.5,2322.8,732.9,3180.9,126.7,510.4,1179.4,2377.9,3161.8,132.2,86.5,18.8
0.053011,505.8,68.1,1191.4,103.2,2330.5,711.2,3183.2,131.1,511,1194.6,2387.5,3171.7,132.1,86.7,19.3
0.055011,507.7,66.5,1195.2,103.8,2367.3,733.8,3184.4,138.1,510.6,1208.6,2396.1,3180.9,132,86.8,19.6
0.057011,508.9,65.3,1198.4,104.4,2425.5,784.8,3187.2,142.4,509.5,1220.3,2403.6,3189.4,131.9,86.8,19.9
0.059011,509.3,64.9,1200.6,104.0,2475.7,818.9,3194.1,136.8,507.7,1228.7,2410.3,3197.1,131.8,86.9,20.2
0.061011,508.7,64.3,1201.6,102.1,2497.7,812.7,3205.5,122.5,505.4,1232.8,2416.2,3203.9,131.7,86.9,20.4
0.063011,507.4,63.4,1201.3,99.6,2499.5,791.5,3217.6,109.4,502.7,1232.2,2421.7,3209.8,131.6,86.9,20.4
0.065011,505.5,63.7,1200.2,98.1,2498.9,790.8,3227.4,102.0,499.7,1226.8,2427.2,3215.1,131.4,86.9,20
0.067011,502.7,65.4,1197.5,96.5,2494.2,806.6,3232.6,97.0,496.5,1216.9,2433.1,3220,131.3,86.8,19.1
0.069011,499.2,66.4,1193.5,93.5,2475.0,803.2,3232.6,90.7,492.9,1203.2,2439.9,3224.6,131.1,86.7,17.9
0.071011,494.5,66.2,1188.9,90.4,2436.6,765.3,3229.1,84.3,489,1186.9,2448.2,3229.3,130.9,86.6,16.4
0.073011,488.6,67.4,1185.4,88.3,2388.8,714.9,3224.0,83.4,484.6,1169.6,2458.5,3234.6,130.7,86.4,14.9
0.075011,481.9,70.4,1184.0,84.7,2352.5,678.8,3221.6,90.8,479.7,1153,2471.1,3240.6,130.6,86.1,13.6
0.077011,474.3,72.3,1184.4,77.8,2353.8,667.2,3227.1,104.6,474.2,1139.2,2486.6,3247.8,130.4,85.9,12.5
0.079011,465.2,72.7,1184.1,69.9,2404.3,665.5,3238.7,122.9,468,1130.1,2505,3256.4,130.2,85.6,11.4
0.081011,454.5,74.2,1181.0,63.8,2483.2,637.5,3252.6,146.6,461.1,1127.5,2526.4,3266.8,130,85.2,10.3
0.083011,442.3,77.6,1176.1,58.9,2556.5,565.3,3272.8,170.7,453.7,1133,2550.6,3279,129.7,84.9,9.4
0.085011,432.6,78.3,1173.6,55.2,2604.4,491.6,3297.1,185.2,445.8,1147.7,2577.4,3293,129.5,84.4,8.7
0.087011,426.2,74.9,1176.0,55.1,2650.7,441.5,3321.9,195.9,437.8,1172.4,2606.1,3308.9,129.3,84,8.3
0.089011,420.6,74.1,1183.0,62.4,2706.0,409.1,3342.0,210.5,430,1206.9,2635.9,3326.3,129.1,83.5,8.2
0.091011,415.6,85.1,1194.1,82.2,2759.4,399.1,3355.2,239.5,422.9,1250.9,2665.9,3344.9,128.9,82.9,8.2
0.093011,414.5,114.2,1210.3,119.1,2800.9,433.5,3370.1,286.9,417.1,1303,2695.1,3364.4,128.7,82.2,8.1
0.095011,419.9,169.5,1240.1,190.1,2831.4,558.1,3391.2,356.9,413.2,1361.5,2722.1,3384.2,128.5,81.5,7.7
0.097011,429.7,243.0,1298.9,320.0,2834.9,837.8,3411.1,398.5,411.9,1424.3,2746,3403.6,128.3,80.6,6.9
0.099011,437.0,316.7,1414.9,520.9,2737.1,1283.4,3428.2,348.9,413.7,1488.6,2765.4,3422.1,128.2,79.8,5.9
0.101011,438.5,394.1,1617.6,670.0,2602.8,1692.6,3443.6,289.0,419.3,1551.9,2779.4,3439.1,128,78.9,4.7
0.103011,438.1,510.7,1769.3,575.8,2702.6,1751.6,3453.9,262.3,429.2,1611.3,2787,3454,127.8,78.1,3.5
0.105011,444.2,702.2,1819.3,480.7,2772.0,1527.1,3459.3,251.0,443.6,1664.3,2787.6,3466.2,127.7,77.2,2.4
0.107011,471.5,699.5,1819.3,447.0,2731.4,1389.2,3457.6,250.7,462.8,1708.6,2780.8,3475.5,127.5,76.5,1.2
0.109011,495.8,450.1,1783.7,425.6,2640.2,1140.2,3452.0,270.7,486.6,1742.5,2766.7,3481.6,0,75.9,-0.2
0.111011,506.6,272.2,1745.9,395.6,2656.9,850.4,3452.8,351.3,514.8,1764.9,2745.4,3484.4,0,75.3,-1.4
0.113011,521.7,193.5,1728.2,365.6,2724.5,641.2,3480.6,539.4,546.8,1775.3,2717.7,3484,0,75,-2.4
0.115011,544.6,177.7,1722.0,351.5,2768.4,508.8,3551.1,780.0,581.9,1774.1,2684.5,3480.6,0,74.6,-2.9
0.117011,579.9,209.5,1702.4,392.8,2771.4,477.2,3574.8,922.5,619.2,1762.3,2647.1,3474.6,0,74.3,-2.6
0.119011,632.4,288.6,1667.3,527.7,2732.9,537.4,3482.8,858.7,657.4,1741.6,2606.9,3466.5,0,74.1,-1.7
0.121011,707.5,391.7,1659.6,781.6,2664.2,630.1,3417.8,751.8,695.5,1714.1,2565.7,3457,0,73.9,-0.6
0.123011,788.8,460.8,1722.5,1151.7,2551.0,747.7,3381.7,713.0,731.9,1682.3,2525.2,3446.8,0,73.9,0.4
0.125011,823.4,505.1,1664.4,1249.5,2418.7,628.2,3348.5,606.8,765.5,1649.2,2487.3,3436.5,0,74,0.7
0.127011,803.2,549.9,1572.4,856.2,2378.9,447.1,3350.8,462.9,795,1617.4,2453.5,3427,0,74.2,0.1
0.129011,783.4,569.0,1565.9,585.8,2363.6,378.5,3378.7,377.6,819.3,1589.5,2425.5,3418.8,0,74.4,-1
0.131011,797.5,621.5,1577.0,489.5,2359.3,413.3,3415.5,356.8,837.3,1567.9,2404.5,3412.6,0,74.7,-2.3
0.133011,836.3,712.3,1590.2,488.2,2373.0,545.3,3460.4,391.4,848.4,1554.2,2391.5,3408.6,0,74.9,-3.6
0.135011,887.3,784.7,1618.0,528.0,2451.0,766.8,3535.7,432.6,852.2,1549.5,2387.1,3407.3,0,75.2,-4.4
